# Proton-Proton Scattering
# Angle vs. Cross-section (millibarns)
# 1000 MeV

  0.000  0.1999E+02     
  9.000  0.1880E+02     
 18.000  0.1397E+02     
 27.000  0.9987E+01     
 36.000  0.6679E+01     
 45.000  0.4128E+01     
 54.000  0.2417E+01     
 63.000  0.1442E+01     
 72.000  0.9359E+00     
 81.000  0.6888E+00     
 90.000  0.6119E+00     
 99.000  0.6888E+00     
108.000  0.9359E+00     
117.000  0.1442E+01     
126.000  0.2417E+01     
135.000  0.4128E+01     
144.000  0.6678E+01     
153.000  0.9987E+01     
162.000  0.1397E+02     
171.000  0.1880E+02     
180.000  0.1999E+02