# Proton-Proton Scattering
# Angle vs. Cross-section (millibarns)
# 800 MeV

  0.000  0.1524E+02     
  9.000  0.1445E+02     
 18.000  0.1152E+02     
 27.000  0.9003E+01     
 36.000  0.6733E+01     
 45.000  0.4782E+01     
 54.000  0.3241E+01     
 63.000  0.2178E+01     
 72.000  0.1524E+01     
 81.000  0.1164E+01     
 90.000  0.1045E+01     
 99.000  0.1164E+01     
108.000  0.1524E+01     
117.000  0.2178E+01     
126.000  0.3241E+01     
135.000  0.4781E+01     
144.000  0.6733E+01     
153.000  0.9002E+01     
162.000  0.1152E+02     
171.000  0.1445E+02     
180.000  0.1524E+02