# Proton-Proton Scattering
# Angle vs. Cross-section (millibarns)
# 950 MeV

  0.000  0.1885E+02     
  9.000  0.1784E+02     
 18.000  0.1349E+02     
 27.000  0.9865E+01     
 36.000  0.6778E+01     
 45.000  0.4326E+01     
 54.000  0.2616E+01     
 63.000  0.1595E+01     
 72.000  0.1042E+01     
 81.000  0.7637E+00     
 90.000  0.6755E+00     
 99.000  0.7637E+00     
108.000  0.1042E+01     
117.000  0.1595E+01     
126.000  0.2616E+01     
135.000  0.4326E+01     
144.000  0.6778E+01     
153.000  0.9865E+01     
162.000  0.1349E+02     
171.000  0.1784E+02     
180.000  0.1885E+02