# Proton-Neutron Scattering
# Angle vs. Cross-section (millibarns)
# 100 MeV

  0.000  0.1167E+02     
  9.000  0.1112E+02     
 18.000  0.9957E+01     
 27.000  0.8628E+01     
 36.000  0.7361E+01     
 45.000  0.6231E+01     
 54.000  0.5286E+01     
 63.000  0.4566E+01     
 72.000  0.4092E+01     
 81.000  0.3876E+01     
 90.000  0.3917E+01     
 99.000  0.4204E+01     
108.000  0.4716E+01     
117.000  0.5418E+01     
126.000  0.6263E+01     
135.000  0.7215E+01     
144.000  0.8299E+01     
153.000  0.9677E+01     
162.000  0.1156E+02     
171.000  0.1367E+02     
180.000  0.1469E+02 