# Proton-Neutron Scattering
# Angle vs. Cross-section (millibarns)
# 850 MeV

  0.000  0.1374E+02     
  9.000  0.1201E+02     
 18.000  0.9970E+01     
 27.000  0.7719E+01     
 36.000  0.5467E+01     
 45.000  0.3558E+01     
 54.000  0.2174E+01     
 63.000  0.1299E+01     
 72.000  0.7993E+00     
 81.000  0.5454E+00     
 90.000  0.4518E+00     
 99.000  0.4623E+00     
108.000  0.5325E+00     
117.000  0.6388E+00     
126.000  0.7981E+00     
135.000  0.1080E+01     
144.000  0.1596E+01     
153.000  0.2421E+01     
162.000  0.3411E+01     
171.000  0.5148E+01     
180.000  0.8879E+01