# Proton-Proton Scattering
# Angle vs. Cross-section (millibarns)
# 450 MeV

  0.000  0.6659E+01     
  9.000  0.5292E+01     
 18.000  0.4724E+01     
 27.000  0.4467E+01    
 36.000  0.4282E+01     
 45.000  0.4145E+01    
 54.000  0.4003E+01     
 63.000  0.3850E+01    
 72.000  0.3716E+01     
 81.000  0.3628E+01     
 90.000  0.3598E+01     
 99.000  0.3628E+01     
108.000  0.3716E+01    
117.000  0.3850E+01     
126.000  0.4002E+01     
135.000  0.4145E+01     
144.000  0.4282E+01     
153.000  0.4467E+01     
162.000  0.4724E+01     
171.000  0.5292E+01     
180.000  0.6659E+01 