# K+N
# Angle vs. Cross-section (millibarns)
# 1100 MeV

  0.000  0.3015E+01
  5.000  0.2968E+01
 10.000  0.2831E+01
 15.000  0.2621E+01
 20.000  0.2357E+01
 25.000  0.2064E+01
 30.000  0.1762E+01
 35.000  0.1472E+01
 40.000  0.1206E+01
 45.000  0.9731E+00
 50.000  0.7781E+00
 55.000  0.6216E+00
 60.000  0.5010E+00
 65.000  0.4111E+00
 70.000  0.3453E+00
 75.000  0.2962E+00
 80.000  0.2574E+00
 85.000  0.2238E+00
 90.000  0.1926E+00
 95.000  0.1626E+00
100.000  0.1347E+00
105.000  0.1105E+00
110.000  0.9185E-01
115.000  0.7986E-01
120.000  0.7468E-01
125.000  0.7543E-01
130.000  0.8062E-01
135.000  0.8869E-01
140.000  0.9839E-01
145.000  0.1088E+00
150.000  0.1194E+00
155.000  0.1293E+00
160.000  0.1380E+00
165.000  0.1448E+00
170.000  0.1495E+00
175.000  0.1521E+00
180.000  0.1530E+00
