# K+N
# Angle vs. Cross-section (millibarns)
# 1300 MeV

  0.000  0.3905E+01
  5.000  0.3827E+01
 10.000  0.3603E+01
 15.000  0.3261E+01
 20.000  0.2841E+01
 25.000  0.2384E+01
 30.000  0.1930E+01
 35.000  0.1511E+01
 40.000  0.1147E+01
 45.000  0.8513E+00
 50.000  0.6264E+00
 55.000  0.4679E+00
 60.000  0.3657E+00
 65.000  0.3056E+00
 70.000  0.2727E+00
 75.000  0.2536E+00
 80.000  0.2386E+00
 85.000  0.2224E+00
 90.000  0.2033E+00
 95.000  0.1823E+00
100.000  0.1615E+00
105.000  0.1433E+00
110.000  0.1294E+00
115.000  0.1208E+00
120.000  0.1172E+00
125.000  0.1173E+00
130.000  0.1192E+00
135.000  0.1212E+00
140.000  0.1225E+00
145.000  0.1233E+00
150.000  0.1247E+00
155.000  0.1277E+00
160.000  0.1325E+00
165.000  0.1385E+00
170.000  0.1444E+00
175.000  0.1487E+00
180.000  0.1503E+00
