# Proton-Neutron Scattering
# Angle vs. Cross-section (millibarns)
# 1000 MeV

  0.000  0.1542E+02     
  9.000  0.1355E+02     
 18.000  0.1092E+02    
 27.000  0.7885E+01    
 36.000  0.5116E+01    
 45.000  0.3051E+01    
 54.000  0.1740E+01     
 63.000  0.9882E+00     
 72.000  0.5789E+00     
 81.000  0.3831E+00     
 90.000  0.3309E+00     
 99.000  0.3707E+00     
108.000  0.4548E+00    
117.000  0.5491E+00    
126.000  0.6608E+00   
135.000  0.8613E+00   
144.000  0.1273E+01   
153.000  0.2029E+01    
162.000  0.3069E+01   
171.000  0.4745E+01   
180.000  0.8655E+01