# Proton-Neutron Scattering
# Angle vs. Cross-section (millibarns)
# 200 MeV

  0.000  0.8108E+01    
  9.000  0.7336E+01     
 18.000  0.6065E+01    
 27.000  0.4978E+01     
 36.000  0.4086E+01     
 45.000  0.3341E+01     
 54.000  0.2736E+01     
 63.000  0.2278E+01     
 72.000  0.1973E+01     
 81.000  0.1830E+01     
 90.000  0.1852E+01     
 99.000  0.2044E+01     
108.000  0.2417E+01     
117.000  0.2975E+01     
126.000  0.3704E+01     
135.000  0.4544E+01     
144.000  0.5424E+01     
153.000  0.6400E+01     
162.000  0.7957E+01     
171.000  0.1065E+02     
180.000  0.1247E+02