# Proton-Neutron Scattering
# Angle vs. Cross-section (millibarns)
# 250 MeV

  0.000  0.7171E+01     
  9.000  0.6353E+01     
 18.000  0.5198E+01     
 27.000  0.4350E+01     
 36.000  0.3679E+01     
 45.000  0.3094E+01     
 54.000  0.2582E+01     
 63.000  0.2160E+01     
 72.000  0.1853E+01     
 81.000  0.1681E+01    
 90.000  0.1653E+01     
 99.000  0.1774E+01     
108.000  0.2060E+01     
117.000  0.2529E+01     
126.000  0.3186E+01     
135.000  0.3985E+01     
144.000  0.4829E+01     
153.000  0.5696E+01     
162.000  0.7029E+01     
171.000  0.9748E+01     
180.000  0.1188E+02