# Proton-Neutron Scattering
# Angle vs. Cross-section (millibarns)
# 300 MeV

  0.000  0.6555E+01     
  9.000  0.5711E+01     
 18.000  0.4702E+01     
 27.000  0.4073E+01     
 36.000  0.3571E+01     
 45.000  0.3082E+01     
 54.000  0.2598E+01     
 63.000  0.2162E+01     
 72.000  0.1823E+01     
 81.000  0.1610E+01     
 90.000  0.1533E+01     
 99.000  0.1593E+01     
108.000  0.1804E+01     
117.000  0.2194E+01     
126.000  0.2784E+01     
135.000  0.3549E+01     
144.000  0.4384E+01     
153.000  0.5204E+01     
162.000  0.6365E+01     
171.000  0.9043E+01     
180.000  0.1145E+02