# K+N
# Angle vs. Cross-section (millibarns)
# 1700 MeV

  0.000  0.7403E+01
  5.000  0.7225E+01
 10.000  0.6715E+01
 15.000  0.5945E+01
 20.000  0.5011E+01
 25.000  0.4020E+01
 30.000  0.3064E+01
 35.000  0.2215E+01
 40.000  0.1515E+01
 45.000  0.9854E+00
 50.000  0.6221E+00
 55.000  0.4054E+00
 60.000  0.3031E+00
 65.000  0.2767E+00
 70.000  0.2895E+00
 75.000  0.3128E+00
 80.000  0.3303E+00
 85.000  0.3366E+00
 90.000  0.3335E+00
 95.000  0.3253E+00
100.000  0.3147E+00
105.000  0.3032E+00
110.000  0.2910E+00
115.000  0.2786E+00
120.000  0.2671E+00
125.000  0.2571E+00
130.000  0.2491E+00
135.000  0.2433E+00
140.000  0.2404E+00
145.000  0.2423E+00
150.000  0.2518E+00
155.000  0.2705E+00
160.000  0.2982E+00
165.000  0.3310E+00
170.000  0.3624E+00
175.000  0.3851E+00
180.000  0.3934E+00
