# K+N
# Angle vs. Cross-section (millibarns)
# 1600 MeV

  0.000  0.6376E+01
  5.000  0.6228E+01
 10.000  0.5802E+01
 15.000  0.5157E+01
 20.000  0.4373E+01
 25.000  0.3537E+01
 30.000  0.2727E+01
 35.000  0.2002E+01
 40.000  0.1400E+01
 45.000  0.9384E+00
 50.000  0.6170E+00
 55.000  0.4203E+00
 60.000  0.3221E+00
 65.000  0.2909E+00
 70.000  0.2954E+00
 75.000  0.3110E+00
 80.000  0.3225E+00
 85.000  0.3244E+00
 90.000  0.3174E+00
 95.000  0.3046E+00
100.000  0.2893E+00
105.000  0.2732E+00
110.000  0.2577E+00
115.000  0.2437E+00
120.000  0.2320E+00
125.000  0.2226E+00
130.000  0.2150E+00
135.000  0.2086E+00
140.000  0.2036E+00
145.000  0.2013E+00
150.000  0.2044E+00
155.000  0.2147E+00
160.000  0.2324E+00
165.000  0.2548E+00
170.000  0.2770E+00
175.000  0.2934E+00
180.000  0.2994E+00
