# K+N
# Angle vs. Cross-section (millibarns)
# 400 MeV

  0.000  0.8632E+00
  5.000  0.8631E+00
 10.000  0.8625E+00
 15.000  0.8608E+00
 20.000  0.8571E+00
 25.000  0.8508E+00
 30.000  0.8412E+00
 35.000  0.8282E+00
 40.000  0.8120E+00
 45.000  0.7931E+00
 50.000  0.7720E+00
 55.000  0.7494E+00
 60.000  0.7265E+00
 65.000  0.7045E+00
 70.000  0.6846E+00
 75.000  0.6684E+00
 80.000  0.6568E+00
 85.000  0.6503E+00
 90.000  0.6487E+00
 95.000  0.6511E+00
100.000  0.6557E+00
105.000  0.6609E+00
110.000  0.6646E+00
115.000  0.6654E+00
120.000  0.6622E+00
125.000  0.6543E+00
130.000  0.6417E+00
135.000  0.6242E+00
140.000  0.6019E+00
145.000  0.5748E+00
150.000  0.5435E+00
155.000  0.5091E+00
160.000  0.4739E+00
165.000  0.4410E+00
170.000  0.4139E+00
175.000  0.3960E+00
180.000  0.3898E+00
