# K+N
# Angle vs. Cross-section (millibarns)
# 700 MeV

  0.000  0.2315E+01
  5.000  0.2299E+01
 10.000  0.2250E+01
 15.000  0.2172E+01
 20.000  0.2070E+01
 25.000  0.1948E+01
 30.000  0.1811E+01
 35.000  0.1665E+01
 40.000  0.1513E+01
 45.000  0.1359E+01
 50.000  0.1209E+01
 55.000  0.1064E+01
 60.000  0.9299E+00
 65.000  0.8080E+00
 70.000  0.7013E+00
 75.000  0.6111E+00
 80.000  0.5375E+00
 85.000  0.4791E+00
 90.000  0.4336E+00
 95.000  0.3980E+00
100.000  0.3698E+00
105.000  0.3472E+00
110.000  0.3294E+00
115.000  0.3165E+00
120.000  0.3090E+00
125.000  0.3071E+00
130.000  0.3103E+00
135.000  0.3176E+00
140.000  0.3270E+00
145.000  0.3359E+00
150.000  0.3418E+00
155.000  0.3427E+00
160.000  0.3384E+00
165.000  0.3302E+00
170.000  0.3207E+00
175.000  0.3133E+00
180.000  0.3105E+00
