# K+N
# Angle vs. Cross-section (millibarns)
# 800 MeV

  0.000  0.2649E+01
  5.000  0.2624E+01
 10.000  0.2552E+01
 15.000  0.2439E+01
 20.000  0.2293E+01
 25.000  0.2123E+01
 30.000  0.1938E+01
 35.000  0.1745E+01
 40.000  0.1552E+01
 45.000  0.1364E+01
 50.000  0.1184E+01
 55.000  0.1017E+01
 60.000  0.8655E+00
 65.000  0.7315E+00
 70.000  0.6164E+00
 75.000  0.5199E+00
 80.000  0.4409E+00
 85.000  0.3767E+00
 90.000  0.3245E+00
 95.000  0.2816E+00
100.000  0.2460E+00
105.000  0.2170E+00
110.000  0.1947E+00
115.000  0.1795E+00
120.000  0.1719E+00
125.000  0.1717E+00
130.000  0.1784E+00
135.000  0.1905E+00
140.000  0.2063E+00
145.000  0.2234E+00
150.000  0.2393E+00
155.000  0.2520E+00
160.000  0.2602E+00
165.000  0.2639E+00
170.000  0.2643E+00
175.000  0.2635E+00
180.000  0.2630E+00
