# Proton-Proton Scattering
# Angle vs. Cross-section (millibarns)
# 550 MeV

  0.000  0.8196E+01     
  9.000  0.6802E+01     
 18.000  0.6084E+01     
 27.000  0.5484E+01     
 36.000  0.4956E+01     
 45.000  0.4496E+01     
 54.000  0.4063E+01     
 63.000  0.3682E+01     
 72.000  0.3400E+01     
 81.000  0.3231E+01     
 90.000  0.3175E+01     
 99.000  0.3231E+01     
108.000  0.3399E+01     
117.000  0.3682E+01     
126.000  0.4063E+01     
135.000  0.4496E+01     
144.000  0.4956E+01     
153.000  0.5484E+01     
162.000  0.6084E+01     
171.000  0.6802E+01     
180.000  0.8196E+01