# KE is lab energy in MeV cross sections in lab in units of mb
# KE      Elas
#    0.   6.215
#   50.   310.8
  100.   672.6
  150.   687.4
  200.   694
  250.   667.7
  300.   610.6
  350.   479.7
  400.   407
  450.   346
  500.   295.6
  550.   254.6
  600.   222.1
  650.   191.8
  700.   168.1
  750.   150.2
  800.   137.4
  850.   129
  900.   124.4
  950.   123.1
 1000.   124.5
