# Proton-Neutron Scattering
# Angle vs. Cross-section (millibarns)
# 400 MeV

  0.000  0.6152E+01     
  9.000  0.5270E+01     
 18.000  0.4511E+01     
 27.000  0.4158E+01     
 36.000  0.3800E+01     
 45.000  0.3327E+01    
 54.000  0.2778E+01     
 63.000  0.2249E+01     
 72.000  0.1824E+01     
 81.000  0.1536E+01     
 90.000  0.1381E+01     
 99.000  0.1346E+01     
108.000  0.1434E+01     
117.000  0.1679E+01     
126.000  0.2132E+01     
135.000  0.2813E+01     
144.000  0.3657E+01     
153.000  0.4518E+01     
162.000  0.5545E+01     
171.000  0.8126E+01     
180.000  0.1103E+02