# Proton-Neutron Scattering
# Angle vs. Cross-section (millibarns)
# 650 MeV

  0.000  0.1043E+02     
  9.000  0.9020E+01     
 18.000  0.7737E+01     
 27.000  0.6624E+01     
 36.000  0.5383E+01     
 45.000  0.4094E+01     
 54.000  0.2935E+01     
 63.000  0.2039E+01     
 72.000  0.1427E+01     
 81.000  0.1046E+01     
 90.000  0.8345E+00     
 99.000  0.7430E+00     
108.000  0.7411E+00     
117.000  0.8270E+00     
126.000  0.1037E+01     
135.000  0.1440E+01     
144.000  0.2093E+01     
153.000  0.2942E+01     
162.000  0.3812E+01     
171.000  0.5692E+01     
180.000  0.9066E+01