# Proton-Neutron Scattering
# Angle vs. Cross-section (millibarns)
# 800 MeV

  0.000  0.1310E+02    
  9.000  0.1143E+02     
 18.000  0.9569E+01     
 27.000  0.7583E+01     
 36.000  0.5542E+01     
 45.000  0.3734E+01     
 54.000  0.2360E+01     
 63.000  0.1452E+01     
 72.000  0.9138E+00     
 81.000  0.6283E+00     
 90.000  0.5106E+00     
 99.000  0.5036E+00     
108.000  0.5637E+00     
117.000  0.6706E+00     
126.000  0.8450E+00     
135.000  0.1156E+01     
144.000  0.1707E+01     
153.000  0.2546E+01     
162.000  0.3510E+01     
171.000  0.5274E+01     
180.000  0.8928E+01 