#pi+ C 220 MeV - theta=110 deg
#Levenson PRC 28, 362 (1983)
50  0.081  0.00972
60  0.109  0.01308
70  0.133  0.01596
80  0.169  0.02028
90  0.194  0.02328
100  0.199  0.02388
110  0.181  0.02172
120  0.151  0.01812
130  0.116  0.01392
140  0.087  0.01044
150  0.056  0.00672
160  0.035  0.0042
170  0.022  0.00264
180  0.013  0.00156
190  0.008  0.00096
200  0.005  0.0006
210  0  0
