# K+N->K0P
# Angle vs. Cross-section (millibarns)
# 1200 MeV

     0.000  0.6799E-04
     5.000  0.7833E-01
    10.000  0.2315E+00
    15.000  0.3919E+00
    20.000  0.5350E+00
    25.000  0.6418E+00
    30.000  0.6994E+00
    35.000  0.7048E+00
    40.000  0.6578E+00
    45.000  0.5809E+00
    50.000  0.4882E+00
    55.000  0.3919E+00
    60.000  0.3016E+00
    65.000  0.2234E+00
    70.000  0.1604E+00
    75.000  0.1132E+00
    80.000  0.8090E-01
    85.000  0.6172E-01
    90.000  0.5371E-01
    95.000  0.5504E-01
   100.000  0.6380E-01
   105.000  0.7782E-01
   110.000  0.9449E-01
   115.000  0.1109E+00
   120.000  0.1244E+00
   125.000  0.1330E+00
   130.000  0.1355E+00
   135.000  0.1321E+00
   140.000  0.1232E+00
   145.000  0.1097E+00
   150.000  0.9278E-01
   155.000  0.7349E-01
   160.000  0.5334E-01
   165.000  0.3420E-01
   170.000  0.1824E-01
   175.000  0.7606E-02
   180.000  0.3865E-02
