# K+N->K0P
# Angle vs. Cross-section (millibarns)
# 1400 MeV

     0.000  0.7205E-04
     5.000  0.8874E-01
    10.000  0.2444E+00
    15.000  0.3904E+00
    20.000  0.5066E+00
    25.000  0.5798E+00
    30.000  0.6047E+00
    35.000  0.5815E+00
    40.000  0.5234E+00
    45.000  0.4468E+00
    50.000  0.3628E+00
    55.000  0.2797E+00
    60.000  0.2036E+00
    65.000  0.1387E+00
    70.000  0.8761E-01
    75.000  0.5138E-01
    80.000  0.2939E-01
    85.000  0.1997E-01
    90.000  0.2125E-01
    95.000  0.3171E-01
   100.000  0.5004E-01
   105.000  0.7447E-01
   110.000  0.1021E+00
   115.000  0.1290E+00
   120.000  0.1510E+00
   125.000  0.1648E+00
   130.000  0.1688E+00
   135.000  0.1634E+00
   140.000  0.1502E+00
   145.000  0.1314E+00
   150.000  0.1090E+00
   155.000  0.8477E-01
   160.000  0.6058E-01
   165.000  0.3834E-01
   170.000  0.2019E-01
   175.000  0.8250E-02
   180.000  0.4073E-02

