# K+N->K0P
# Angle vs. Cross-section (millibarns)
# 1800 MeV

     0.000  0.2416E-03
     5.000  0.2622E+00
    10.000  0.5612E+00
    15.000  0.6890E+00
    20.000  0.6863E+00
    25.000  0.6003E+00
    30.000  0.4706E+00
    35.000  0.3361E+00
    40.000  0.2250E+00
    45.000  0.1464E+00
    50.000  0.9903E-01
    55.000  0.7431E-01
    60.000  0.6305E-01
    65.000  0.5953E-01
    70.000  0.6212E-01
    75.000  0.7092E-01
    80.000  0.8559E-01
    85.000  0.1049E+00
    90.000  0.1278E+00
    95.000  0.1546E+00
   100.000  0.1865E+00
   105.000  0.2234E+00
   110.000  0.2618E+00
   115.000  0.2949E+00
   120.000  0.3149E+00
   125.000  0.3164E+00
   130.000  0.2997E+00
   135.000  0.2709E+00
   140.000  0.2400E+00
   145.000  0.2172E+00
   150.000  0.2100E+00
   155.000  0.2210E+00
   160.000  0.2474E+00
   165.000  0.2823E+00
   170.000  0.3168E+00
   175.000  0.3419E+00
   180.000  0.3510E+00
